# === DATA DESCRIPTION FILE ======================================================
#
# CAUTION - Investigational device.
# Limited by Federal Law to investigational use.
#
# Dataset name: E:\Dicom\TRUST_TRIR_001\\TRUST_TRIR_001_WIP_TRIR_adiab_ses1_scan1_7_1
#
# CLINICAL TRYOUT             Research image export tool     V4.2
#
# === GENERAL INFORMATION ========================================================
#
.    Patient name                       :   TRUST_TRIR_001
.    Examination name                   :   ------
.    Protocol name                      :   WIP TRIR_adiab_ses1_scan1
.    Examination date/time              :   2021.02.16 / 16:23:25
.    Series Type                        :   Image   MRSERIES
.    Acquisition nr                     :   7
.    Reconstruction nr                  :   1
.    Scan Duration [sec]                :   180
.    Max. number of cardiac phases      :   60
.    Max. number of echoes              :   1
.    Max. number of slices/locations    :   1
.    Max. number of dynamics            :   4
.    Max. number of mixes               :   1
.    Patient position                   :   Head First Supine
.    Preparation direction              :   Anterior-Posterior
.    Technique                          :   FEEPI
.    Scan resolution  (x, y)            :   68  68
.    Scan mode                          :   MS
.    Repetition time [ms]               :   150.000  
.    FOV (ap,fh,rl) [mm]                :   220.000  5.000  220.000
.    Water Fat shift [pixels]           :   4.408
.    Angulation midslice(ap,fh,rl)[degr]:   0.263  1.354  -10.463
.    Off Centre midslice(ap,fh,rl) [mm] :   1.225  -16.543  0.560
.    Flow compensation <0=no 1=yes> ?   :   0
.    Presaturation     <0=no 1=yes> ?   :   0
.    Phase encoding velocity [cm/sec]   :   0.000000  0.000000  0.000000
.    MTC               <0=no 1=yes> ?   :   0
.    SPIR              <0=no 1=yes> ?   :   0
.    EPI factor        <0,1=no EPI>     :   17
.    Dynamic scan      <0=no 1=yes> ?   :   1
.    Diffusion         <0=no 1=yes> ?   :   0
.    Diffusion echo time [ms]           :   0.0000
.    Max. number of diffusion values    :   1
.    Max. number of gradient orients    :   1
.    Number of label types   <0=no ASL> :   0
#
# === PIXEL VALUES =============================================================
#  PV = pixel value in REC file, FP = floating point value, DV = displayed value on console
#  RS = rescale slope,           RI = rescale intercept,    SS = scale slope
#  DV = PV * RS + RI             FP = DV / (RS * SS)
#
# === IMAGE INFORMATION DEFINITION =============================================
#  The rest of this file contains ONE line per image, this line contains the following information:
#
#  slice number                             (integer)
#  echo number                              (integer)
#  dynamic scan number                      (integer)
#  cardiac phase number                     (integer)
#  image_type_mr                            (integer)
#  scanning sequence                        (integer)
#  index in REC file (in images)            (integer)
#  image pixel size (in bits)               (integer)
#  scan percentage                          (integer)
#  recon resolution (x y)                   (2*integer)
#  rescale intercept                        (float)
#  rescale slope                            (float)
#  scale slope                              (float)
#  window center                            (integer)
#  window width                             (integer)
#  image angulation (ap,fh,rl in degrees )  (3*float)
#  image offcentre (ap,fh,rl in mm )        (3*float)
#  slice thickness (in mm )                 (float)
#  slice gap (in mm )                       (float)
#  image_display_orientation                (integer)
#  slice orientation ( TRA/SAG/COR )        (integer)
#  fmri_status_indication                   (integer)
#  image_type_ed_es  (end diast/end syst)   (integer)
#  pixel spacing (x,y) (in mm)              (2*float)
#  echo_time                                (float)
#  dyn_scan_begin_time                      (float)
#  trigger_time                             (float)
#  diffusion_b_factor                       (float)
#  number of averages                       (integer)
#  image_flip_angle (in degrees)            (float)
#  cardiac frequency   (bpm)                (integer)
#  minimum RR-interval (in ms)              (integer)
#  maximum RR-interval (in ms)              (integer)
#  TURBO factor  <0=no turbo>               (integer)
#  Inversion delay (in ms)                  (float)
#  diffusion b value number    (imagekey!)  (integer)
#  gradient orientation number (imagekey!)  (integer)
#  contrast type                            (string)
#  diffusion anisotropy type                (string)
#  diffusion (ap, fh, rl)                   (3*float)
#  label type (ASL)            (imagekey!)  (integer)
#  Contrast Bolus Agent                     (string)
#  Contrast Bolus Route                     (float)
#  Contrast Bolus Volume                    (string)
#  Contrast Bolus Start Time                (string)
#  Contrast Bolus Total Dose                (float)
#  Contrast Bolus Ingredient                (string)
#  Contrast Bolus Ingredient Concentration  (float)
#
# === IMAGE INFORMATION ==========================================================
#  sl ec  dyn ph ty    idx pix scan% rec size                (re)scale              window        angulation              offcentre        thick   gap   info      spacing     echo     dtime   ttime    diff  avg  flip    freq   RR-int  turbo delay b grad cont anis         diffusion       L.ty  contagent   controute  contvolume  conttime  contdose  contingr  contingrconcen

  1   1    1  1 0 2     0  16   100   80   80     0.00000   2.84811  3.08826e-03  1070  1860   0.26   1.35 -10.46    1.22  -16.54    0.56  5.000  0.000 0 1 1 2  2.750  2.750   4.00    0.00   483.00    0.00   1   95.00     6    0    0    17   0.0  1   1    3    0   0.000    0.000    0.000  1  0.000000  0.000000  0.000000
  1   1    2  1 0 2     1  16   100   80   80     0.00000   2.84811  3.08826e-03  1070  1860   0.26   1.35 -10.46    1.22  -16.54    0.56  5.000  0.000 0 1 2 2  2.750  2.750   4.00   39.37   483.00    0.00   1   95.00     6    0    0    17   0.0  1   1    3    0   0.000    0.000    0.000  1  0.000000  0.000000  0.000000
  1   1    3  1 0 2     2  16   100   80   80     0.00000   2.84811  3.08826e-03  1070  1860   0.26   1.35 -10.46    1.22  -16.54    0.56  5.000  0.000 0 1 3 2  2.750  2.750   4.00   78.90   483.00    0.00   1   95.00     6    0    0    17   0.0  1   1    3    0   0.000    0.000    0.000  1  0.000000  0.000000  0.000000
  1   1    4  1 0 2     3  16   100   80   80     0.00000   2.84811  3.08826e-03  1070  1860   0.26   1.35 -10.46    1.22  -16.54    0.56  5.000  0.000 0 1 4 2  2.750  2.750   4.00  118.63   483.00    0.00   1   95.00     6    0    0    17   0.0  1   1    3    0   0.000    0.000    0.000  1  0.000000  0.000000  0.000000
  1   1    1  2 0 2     4  16   100   80   80     0.00000   2.84811  3.08826e-03  1070  1860   0.26   1.35 -10.46    1.22  -16.54    0.56  5.000  0.000 0 1 1 2  2.750  2.750   4.00    0.00   633.00    0.00   1   95.00     6    0    0    17   0.0  1   1    3    0   0.000    0.000    0.000  1  0.000000  0.000000  0.000000
  1   1    2  2 0 2     5  16   100   80   80     0.00000   2.84811  3.08826e-03  1070  1860   0.26   1.35 -10.46    1.22  -16.54    0.56  5.000  0.000 0 1 2 2  2.750  2.750   4.00   39.37   633.00    0.00   1   95.00     6    0    0    17   0.0  1   1    3    0   0.000    0.000    0.000  1  0.000000  0.000000  0.000000
  1   1    3  2 0 2     6  16   100   80   80     0.00000   2.84811  3.08826e-03  1070  1860   0.26   1.35 -10.46    1.22  -16.54    0.56  5.000  0.000 0 1 3 2  2.750  2.750   4.00   78.90   633.00    0.00   1   95.00     6    0    0    17   0.0  1   1    3    0   0.000    0.000    0.000  1  0.000000  0.000000  0.000000
  1   1    4  2 0 2     7  16   100   80   80     0.00000   2.84811  3.08826e-03  1070  1860   0.26   1.35 -10.46    1.22  -16.54    0.56  5.000  0.000 0 1 4 2  2.750  2.750   4.00  118.63   633.00    0.00   1   95.00     6    0    0    17   0.0  1   1    3    0   0.000    0.000    0.000  1  0.000000  0.000000  0.000000
  1   1    1  3 0 2     8  16   100   80   80     0.00000   2.84811  3.08826e-03  1070  1860   0.26   1.35 -10.46    1.22  -16.54    0.56  5.000  0.000 0 1 1 2  2.750  2.750   4.00    0.00   783.00    0.00   1   95.00     6    0    0    17   0.0  1   1    3    0   0.000    0.000    0.000  1  0.000000  0.000000  0.000000
  1   1    2  3 0 2     9  16   100   80   80     0.00000   2.84811  3.08826e-03  1070  1860   0.26   1.35 -10.46    1.22  -16.54    0.56  5.000  0.000 0 1 2 2  2.750  2.750   4.00   39.37   783.00    0.00   1   95.00     6    0    0    17   0.0  1   1    3    0   0.000    0.000    0.000  1  0.000000  0.000000  0.000000
  1   1    3  3 0 2    10  16   100   80   80     0.00000   2.84811  3.08826e-03  1070  1860   0.26   1.35 -10.46    1.22  -16.54    0.56  5.000  0.000 0 1 3 2  2.750  2.750   4.00   78.90   783.00    0.00   1   95.00     6    0    0    17   0.0  1   1    3    0   0.000    0.000    0.000  1  0.000000  0.000000  0.000000
  1   1    4  3 0 2    11  16   100   80   80     0.00000   2.84811  3.08826e-03  1070  1860   0.26   1.35 -10.46    1.22  -16.54    0.56  5.000  0.000 0 1 4 2  2.750  2.750   4.00  118.63   783.00    0.00   1   95.00     6    0    0    17   0.0  1   1    3    0   0.000    0.000    0.000  1  0.000000  0.000000  0.000000
  1   1    1  4 0 2    12  16   100   80   80     0.00000   2.84811  3.08826e-03  1070  1860   0.26   1.35 -10.46    1.22  -16.54    0.56  5.000  0.000 0 1 1 2  2.750  2.750   4.00    0.00   933.00    0.00   1   95.00     6    0    0    17   0.0  1   1    3    0   0.000    0.000    0.000  1  0.000000  0.000000  0.000000
  1   1    2  4 0 2    13  16   100   80   80     0.00000   2.84811  3.08826e-03  1070  1860   0.26   1.35 -10.46    1.22  -16.54    0.56  5.000  0.000 0 1 2 2  2.750  2.750   4.00   39.37   933.00    0.00   1   95.00     6    0    0    17   0.0  1   1    3    0   0.000    0.000    0.000  1  0.000000  0.000000  0.000000
  1   1    3  4 0 2    14  16   100   80   80     0.00000   2.84811  3.08826e-03  1070  1860   0.26   1.35 -10.46    1.22  -16.54    0.56  5.000  0.000 0 1 3 2  2.750  2.750   4.00   78.90   933.00    0.00   1   95.00     6    0    0    17   0.0  1   1    3    0   0.000    0.000    0.000  1  0.000000  0.000000  0.000000
  1   1    4  4 0 2    15  16   100   80   80     0.00000   2.84811  3.08826e-03  1070  1860   0.26   1.35 -10.46    1.22  -16.54    0.56  5.000  0.000 0 1 4 2  2.750  2.750   4.00  118.63   933.00    0.00   1   95.00     6    0    0    17   0.0  1   1    3    0   0.000    0.000    0.000  1  0.000000  0.000000  0.000000
  1   1    1  5 0 2    16  16   100   80   80     0.00000   2.84811  3.08826e-03  1070  1860   0.26   1.35 -10.46    1.22  -16.54    0.56  5.000  0.000 0 1 1 2  2.750  2.750   4.00    0.00  1083.00    0.00   1   95.00     6    0    0    17   0.0  1   1    3    0   0.000    0.000    0.000  1  0.000000  0.000000  0.000000
  1   1    2  5 0 2    17  16   100   80   80     0.00000   2.84811  3.08826e-03  1070  1860   0.26   1.35 -10.46    1.22  -16.54    0.56  5.000  0.000 0 1 2 2  2.750  2.750   4.00   39.37  1083.00    0.00   1   95.00     6    0    0    17   0.0  1   1    3    0   0.000    0.000    0.000  1  0.000000  0.000000  0.000000
  1   1    3  5 0 2    18  16   100   80   80     0.00000   2.84811  3.08826e-03  1070  1860   0.26   1.35 -10.46    1.22  -16.54    0.56  5.000  0.000 0 1 3 2  2.750  2.750   4.00   78.90  1083.00    0.00   1   95.00     6    0    0    17   0.0  1   1    3    0   0.000    0.000    0.000  1  0.000000  0.000000  0.000000
  1   1    4  5 0 2    19  16   100   80   80     0.00000   2.84811  3.08826e-03  1070  1860   0.26   1.35 -10.46    1.22  -16.54    0.56  5.000  0.000 0 1 4 2  2.750  2.750   4.00  118.63  1083.00    0.00   1   95.00     6    0    0    17   0.0  1   1    3    0   0.000    0.000    0.000  1  0.000000  0.000000  0.000000
  1   1    1  6 0 2    20  16   100   80   80     0.00000   2.84811  3.08826e-03  1070  1860   0.26   1.35 -10.46    1.22  -16.54    0.56  5.000  0.000 0 1 1 2  2.750  2.750   4.00    0.00  1233.00    0.00   1   95.00     6    0    0    17   0.0  1   1    3    0   0.000    0.000    0.000  1  0.000000  0.000000  0.000000
  1   1    2  6 0 2    21  16   100   80   80     0.00000   2.84811  3.08826e-03  1070  1860   0.26   1.35 -10.46    1.22  -16.54    0.56  5.000  0.000 0 1 2 2  2.750  2.750   4.00   39.37  1233.00    0.00   1   95.00     6    0    0    17   0.0  1   1    3    0   0.000    0.000    0.000  1  0.000000  0.000000  0.000000
  1   1    3  6 0 2    22  16   100   80   80     0.00000   2.84811  3.08826e-03  1070  1860   0.26   1.35 -10.46    1.22  -16.54    0.56  5.000  0.000 0 1 3 2  2.750  2.750   4.00   78.90  1233.00    0.00   1   95.00     6    0    0    17   0.0  1   1    3    0   0.000    0.000    0.000  1  0.000000  0.000000  0.000000
  1   1    4  6 0 2    23  16   100   80   80     0.00000   2.84811  3.08826e-03  1070  1860   0.26   1.35 -10.46    1.22  -16.54    0.56  5.000  0.000 0 1 4 2  2.750  2.750   4.00  118.63  1233.00    0.00   1   95.00     6    0    0    17   0.0  1   1    3    0   0.000    0.000    0.000  1  0.000000  0.000000  0.000000
  1   1    1  7 0 2    24  16   100   80   80     0.00000   2.84811  3.08826e-03  1070  1860   0.26   1.35 -10.46    1.22  -16.54    0.56  5.000  0.000 0 1 1 2  2.750  2.750   4.00    0.00  1383.00    0.00   1   95.00     6    0    0    17   0.0  1   1    3    0   0.000    0.000    0.000  1  0.000000  0.000000  0.000000
  1   1    2  7 0 2    25  16   100   80   80     0.00000   2.84811  3.08826e-03  1070  1860   0.26   1.35 -10.46    1.22  -16.54    0.56  5.000  0.000 0 1 2 2  2.750  2.750   4.00   39.37  1383.00    0.00   1   95.00     6    0    0    17   0.0  1   1    3    0   0.000    0.000    0.000  1  0.000000  0.000000  0.000000
  1   1    3  7 0 2    26  16   100   80   80     0.00000   2.84811  3.08826e-03  1070  1860   0.26   1.35 -10.46    1.22  -16.54    0.56  5.000  0.000 0 1 3 2  2.750  2.750   4.00   78.90  1383.00    0.00   1   95.00     6    0    0    17   0.0  1   1    3    0   0.000    0.000    0.000  1  0.000000  0.000000  0.000000
  1   1    4  7 0 2    27  16   100   80   80     0.00000   2.84811  3.08826e-03  1070  1860   0.26   1.35 -10.46    1.22  -16.54    0.56  5.000  0.000 0 1 4 2  2.750  2.750   4.00  118.63  1383.00    0.00   1   95.00     6    0    0    17   0.0  1   1    3    0   0.000    0.000    0.000  1  0.000000  0.000000  0.000000
  1   1    1  8 0 2    28  16   100   80   80     0.00000   2.84811  3.08826e-03  1070  1860   0.26   1.35 -10.46    1.22  -16.54    0.56  5.000  0.000 0 1 1 2  2.750  2.750   4.00    0.00  1533.00    0.00   1   95.00     6    0    0    17   0.0  1   1    3    0   0.000    0.000    0.000  1  0.000000  0.000000  0.000000
  1   1    2  8 0 2    29  16   100   80   80     0.00000   2.84811  3.08826e-03  1070  1860   0.26   1.35 -10.46    1.22  -16.54    0.56  5.000  0.000 0 1 2 2  2.750  2.750   4.00   39.37  1533.00    0.00   1   95.00     6    0    0    17   0.0  1   1    3    0   0.000    0.000    0.000  1  0.000000  0.000000  0.000000
  1   1    3  8 0 2    30  16   100   80   80     0.00000   2.84811  3.08826e-03  1070  1860   0.26   1.35 -10.46    1.22  -16.54    0.56  5.000  0.000 0 1 3 2  2.750  2.750   4.00   78.90  1533.00    0.00   1   95.00     6    0    0    17   0.0  1   1    3    0   0.000    0.000    0.000  1  0.000000  0.000000  0.000000
  1   1    4  8 0 2    31  16   100   80   80     0.00000   2.84811  3.08826e-03  1070  1860   0.26   1.35 -10.46    1.22  -16.54    0.56  5.000  0.000 0 1 4 2  2.750  2.750   4.00  118.63  1533.00    0.00   1   95.00     6    0    0    17   0.0  1   1    3    0   0.000    0.000    0.000  1  0.000000  0.000000  0.000000
  1   1    1  9 0 2    32  16   100   80   80     0.00000   2.84811  3.08826e-03  1070  1860   0.26   1.35 -10.46    1.22  -16.54    0.56  5.000  0.000 0 1 1 2  2.750  2.750   4.00    0.00  1683.00    0.00   1   95.00     6    0    0    17   0.0  1   1    3    0   0.000    0.000    0.000  1  0.000000  0.000000  0.000000
  1   1    2  9 0 2    33  16   100   80   80     0.00000   2.84811  3.08826e-03  1070  1860   0.26   1.35 -10.46    1.22  -16.54    0.56  5.000  0.000 0 1 2 2  2.750  2.750   4.00   39.37  1683.00    0.00   1   95.00     6    0    0    17   0.0  1   1    3    0   0.000    0.000    0.000  1  0.000000  0.000000  0.000000
  1   1    3  9 0 2    34  16   100   80   80     0.00000   2.84811  3.08826e-03  1070  1860   0.26   1.35 -10.46    1.22  -16.54    0.56  5.000  0.000 0 1 3 2  2.750  2.750   4.00   78.90  1683.00    0.00   1   95.00     6    0    0    17   0.0  1   1    3    0   0.000    0.000    0.000  1  0.000000  0.000000  0.000000
  1   1    4  9 0 2    35  16   100   80   80     0.00000   2.84811  3.08826e-03  1070  1860   0.26   1.35 -10.46    1.22  -16.54    0.56  5.000  0.000 0 1 4 2  2.750  2.750   4.00  118.63  1683.00    0.00   1   95.00     6    0    0    17   0.0  1   1    3    0   0.000    0.000    0.000  1  0.000000  0.000000  0.000000
  1   1    1 10 0 2    36  16   100   80   80     0.00000   2.84811  3.08826e-03  1070  1860   0.26   1.35 -10.46    1.22  -16.54    0.56  5.000  0.000 0 1 1 2  2.750  2.750   4.00    0.00  1833.00    0.00   1   95.00     6    0    0    17   0.0  1   1    3    0   0.000    0.000    0.000  1  0.000000  0.000000  0.000000
  1   1    2 10 0 2    37  16   100   80   80     0.00000   2.84811  3.08826e-03  1070  1860   0.26   1.35 -10.46    1.22  -16.54    0.56  5.000  0.000 0 1 2 2  2.750  2.750   4.00   39.37  1833.00    0.00   1   95.00     6    0    0    17   0.0  1   1    3    0   0.000    0.000    0.000  1  0.000000  0.000000  0.000000
  1   1    3 10 0 2    38  16   100   80   80     0.00000   2.84811  3.08826e-03  1070  1860   0.26   1.35 -10.46    1.22  -16.54    0.56  5.000  0.000 0 1 3 2  2.750  2.750   4.00   78.90  1833.00    0.00   1   95.00     6    0    0    17   0.0  1   1    3    0   0.000    0.000    0.000  1  0.000000  0.000000  0.000000
  1   1    4 10 0 2    39  16   100   80   80     0.00000   2.84811  3.08826e-03  1070  1860   0.26   1.35 -10.46    1.22  -16.54    0.56  5.000  0.000 0 1 4 2  2.750  2.750   4.00  118.63  1833.00    0.00   1   95.00     6    0    0    17   0.0  1   1    3    0   0.000    0.000    0.000  1  0.000000  0.000000  0.000000
  1   1    1 11 0 2    40  16   100   80   80     0.00000   2.84811  3.08826e-03  1070  1860   0.26   1.35 -10.46    1.22  -16.54    0.56  5.000  0.000 0 1 1 2  2.750  2.750   4.00    0.00  1983.00    0.00   1   95.00     6    0    0    17   0.0  1   1    3    0   0.000    0.000    0.000  1  0.000000  0.000000  0.000000
  1   1    2 11 0 2    41  16   100   80   80     0.00000   2.84811  3.08826e-03  1070  1860   0.26   1.35 -10.46    1.22  -16.54    0.56  5.000  0.000 0 1 2 2  2.750  2.750   4.00   39.37  1983.00    0.00   1   95.00     6    0    0    17   0.0  1   1    3    0   0.000    0.000    0.000  1  0.000000  0.000000  0.000000
  1   1    3 11 0 2    42  16   100   80   80     0.00000   2.84811  3.08826e-03  1070  1860   0.26   1.35 -10.46    1.22  -16.54    0.56  5.000  0.000 0 1 3 2  2.750  2.750   4.00   78.90  1983.00    0.00   1   95.00     6    0    0    17   0.0  1   1    3    0   0.000    0.000    0.000  1  0.000000  0.000000  0.000000
  1   1    4 11 0 2    43  16   100   80   80     0.00000   2.84811  3.08826e-03  1070  1860   0.26   1.35 -10.46    1.22  -16.54    0.56  5.000  0.000 0 1 4 2  2.750  2.750   4.00  118.63  1983.00    0.00   1   95.00     6    0    0    17   0.0  1   1    3    0   0.000    0.000    0.000  1  0.000000  0.000000  0.000000
  1   1    1 12 0 2    44  16   100   80   80     0.00000   2.84811  3.08826e-03  1070  1860   0.26   1.35 -10.46    1.22  -16.54    0.56  5.000  0.000 0 1 1 2  2.750  2.750   4.00    0.00  2133.00    0.00   1   95.00     6    0    0    17   0.0  1   1    3    0   0.000    0.000    0.000  1  0.000000  0.000000  0.000000
  1   1    2 12 0 2    45  16   100   80   80     0.00000   2.84811  3.08826e-03  1070  1860   0.26   1.35 -10.46    1.22  -16.54    0.56  5.000  0.000 0 1 2 2  2.750  2.750   4.00   39.37  2133.00    0.00   1   95.00     6    0    0    17   0.0  1   1    3    0   0.000    0.000    0.000  1  0.000000  0.000000  0.000000
  1   1    3 12 0 2    46  16   100   80   80     0.00000   2.84811  3.08826e-03  1070  1860   0.26   1.35 -10.46    1.22  -16.54    0.56  5.000  0.000 0 1 3 2  2.750  2.750   4.00   78.90  2133.00    0.00   1   95.00     6    0    0    17   0.0  1   1    3    0   0.000    0.000    0.000  1  0.000000  0.000000  0.000000
  1   1    4 12 0 2    47  16   100   80   80     0.00000   2.84811  3.08826e-03  1070  1860   0.26   1.35 -10.46    1.22  -16.54    0.56  5.000  0.000 0 1 4 2  2.750  2.750   4.00  118.63  2133.00    0.00   1   95.00     6    0    0    17   0.0  1   1    3    0   0.000    0.000    0.000  1  0.000000  0.000000  0.000000
  1   1    1 13 0 2    48  16   100   80   80     0.00000   2.84811  3.08826e-03  1070  1860   0.26   1.35 -10.46    1.22  -16.54    0.56  5.000  0.000 0 1 1 2  2.750  2.750   4.00    0.00  2283.00    0.00   1   95.00     6    0    0    17   0.0  1   1    3    0   0.000    0.000    0.000  1  0.000000  0.000000  0.000000
  1   1    2 13 0 2    49  16   100   80   80     0.00000   2.84811  3.08826e-03  1070  1860   0.26   1.35 -10.46    1.22  -16.54    0.56  5.000  0.000 0 1 2 2  2.750  2.750   4.00   39.37  2283.00    0.00   1   95.00     6    0    0    17   0.0  1   1    3    0   0.000    0.000    0.000  1  0.000000  0.000000  0.000000
  1   1    3 13 0 2    50  16   100   80   80     0.00000   2.84811  3.08826e-03  1070  1860   0.26   1.35 -10.46    1.22  -16.54    0.56  5.000  0.000 0 1 3 2  2.750  2.750   4.00   78.90  2283.00    0.00   1   95.00     6    0    0    17   0.0  1   1    3    0   0.000    0.000    0.000  1  0.000000  0.000000  0.000000
  1   1    4 13 0 2    51  16   100   80   80     0.00000   2.84811  3.08826e-03  1070  1860   0.26   1.35 -10.46    1.22  -16.54    0.56  5.000  0.000 0 1 4 2  2.750  2.750   4.00  118.63  2283.00    0.00   1   95.00     6    0    0    17   0.0  1   1    3    0   0.000    0.000    0.000  1  0.000000  0.000000  0.000000
  1   1    1 14 0 2    52  16   100   80   80     0.00000   2.84811  3.08826e-03  1070  1860   0.26   1.35 -10.46    1.22  -16.54    0.56  5.000  0.000 0 1 1 2  2.750  2.750   4.00    0.00  2433.00    0.00   1   95.00     6    0    0    17   0.0  1   1    3    0   0.000    0.000    0.000  1  0.000000  0.000000  0.000000
  1   1    2 14 0 2    53  16   100   80   80     0.00000   2.84811  3.08826e-03  1070  1860   0.26   1.35 -10.46    1.22  -16.54    0.56  5.000  0.000 0 1 2 2  2.750  2.750   4.00   39.37  2433.00    0.00   1   95.00     6    0    0    17   0.0  1   1    3    0   0.000    0.000    0.000  1  0.000000  0.000000  0.000000
  1   1    3 14 0 2    54  16   100   80   80     0.00000   2.84811  3.08826e-03  1070  1860   0.26   1.35 -10.46    1.22  -16.54    0.56  5.000  0.000 0 1 3 2  2.750  2.750   4.00   78.90  2433.00    0.00   1   95.00     6    0    0    17   0.0  1   1    3    0   0.000    0.000    0.000  1  0.000000  0.000000  0.000000
  1   1    4 14 0 2    55  16   100   80   80     0.00000   2.84811  3.08826e-03  1070  1860   0.26   1.35 -10.46    1.22  -16.54    0.56  5.000  0.000 0 1 4 2  2.750  2.750   4.00  118.63  2433.00    0.00   1   95.00     6    0    0    17   0.0  1   1    3    0   0.000    0.000    0.000  1  0.000000  0.000000  0.000000
  1   1    1 15 0 2    56  16   100   80   80     0.00000   2.84811  3.08826e-03  1070  1860   0.26   1.35 -10.46    1.22  -16.54    0.56  5.000  0.000 0 1 1 2  2.750  2.750   4.00    0.00  2583.00    0.00   1   95.00     6    0    0    17   0.0  1   1    3    0   0.000    0.000    0.000  1  0.000000  0.000000  0.000000
  1   1    2 15 0 2    57  16   100   80   80     0.00000   2.84811  3.08826e-03  1070  1860   0.26   1.35 -10.46    1.22  -16.54    0.56  5.000  0.000 0 1 2 2  2.750  2.750   4.00   39.37  2583.00    0.00   1   95.00     6    0    0    17   0.0  1   1    3    0   0.000    0.000    0.000  1  0.000000  0.000000  0.000000
  1   1    3 15 0 2    58  16   100   80   80     0.00000   2.84811  3.08826e-03  1070  1860   0.26   1.35 -10.46    1.22  -16.54    0.56  5.000  0.000 0 1 3 2  2.750  2.750   4.00   78.90  2583.00    0.00   1   95.00     6    0    0    17   0.0  1   1    3    0   0.000    0.000    0.000  1  0.000000  0.000000  0.000000
  1   1    4 15 0 2    59  16   100   80   80     0.00000   2.84811  3.08826e-03  1070  1860   0.26   1.35 -10.46    1.22  -16.54    0.56  5.000  0.000 0 1 4 2  2.750  2.750   4.00  118.63  2583.00    0.00   1   95.00     6    0    0    17   0.0  1   1    3    0   0.000    0.000    0.000  1  0.000000  0.000000  0.000000
  1   1    1 16 0 2    60  16   100   80   80     0.00000   2.84811  3.08826e-03  1070  1860   0.26   1.35 -10.46    1.22  -16.54    0.56  5.000  0.000 0 1 1 2  2.750  2.750   4.00    0.00  2733.00    0.00   1   95.00     6    0    0    17   0.0  1   1    3    0   0.000    0.000    0.000  1  0.000000  0.000000  0.000000
  1   1    2 16 0 2    61  16   100   80   80     0.00000   2.84811  3.08826e-03  1070  1860   0.26   1.35 -10.46    1.22  -16.54    0.56  5.000  0.000 0 1 2 2  2.750  2.750   4.00   39.37  2733.00    0.00   1   95.00     6    0    0    17   0.0  1   1    3    0   0.000    0.000    0.000  1  0.000000  0.000000  0.000000
  1   1    3 16 0 2    62  16   100   80   80     0.00000   2.84811  3.08826e-03  1070  1860   0.26   1.35 -10.46    1.22  -16.54    0.56  5.000  0.000 0 1 3 2  2.750  2.750   4.00   78.90  2733.00    0.00   1   95.00     6    0    0    17   0.0  1   1    3    0   0.000    0.000    0.000  1  0.000000  0.000000  0.000000
  1   1    4 16 0 2    63  16   100   80   80     0.00000   2.84811  3.08826e-03  1070  1860   0.26   1.35 -10.46    1.22  -16.54    0.56  5.000  0.000 0 1 4 2  2.750  2.750   4.00  118.63  2733.00    0.00   1   95.00     6    0    0    17   0.0  1   1    3    0   0.000    0.000    0.000  1  0.000000  0.000000  0.000000
  1   1    1 17 0 2    64  16   100   80   80     0.00000   2.84811  3.08826e-03  1070  1860   0.26   1.35 -10.46    1.22  -16.54    0.56  5.000  0.000 0 1 1 2  2.750  2.750   4.00    0.00  2883.00    0.00   1   95.00     6    0    0    17   0.0  1   1    3    0   0.000    0.000    0.000  1  0.000000  0.000000  0.000000
  1   1    2 17 0 2    65  16   100   80   80     0.00000   2.84811  3.08826e-03  1070  1860   0.26   1.35 -10.46    1.22  -16.54    0.56  5.000  0.000 0 1 2 2  2.750  2.750   4.00   39.37  2883.00    0.00   1   95.00     6    0    0    17   0.0  1   1    3    0   0.000    0.000    0.000  1  0.000000  0.000000  0.000000
  1   1    3 17 0 2    66  16   100   80   80     0.00000   2.84811  3.08826e-03  1070  1860   0.26   1.35 -10.46    1.22  -16.54    0.56  5.000  0.000 0 1 3 2  2.750  2.750   4.00   78.90  2883.00    0.00   1   95.00     6    0    0    17   0.0  1   1    3    0   0.000    0.000    0.000  1  0.000000  0.000000  0.000000
  1   1    4 17 0 2    67  16   100   80   80     0.00000   2.84811  3.08826e-03  1070  1860   0.26   1.35 -10.46    1.22  -16.54    0.56  5.000  0.000 0 1 4 2  2.750  2.750   4.00  118.63  2883.00    0.00   1   95.00     6    0    0    17   0.0  1   1    3    0   0.000    0.000    0.000  1  0.000000  0.000000  0.000000
  1   1    1 18 0 2    68  16   100   80   80     0.00000   2.84811  3.08826e-03  1070  1860   0.26   1.35 -10.46    1.22  -16.54    0.56  5.000  0.000 0 1 1 2  2.750  2.750   4.00    0.00  3033.00    0.00   1   95.00     6    0    0    17   0.0  1   1    3    0   0.000    0.000    0.000  1  0.000000  0.000000  0.000000
  1   1    2 18 0 2    69  16   100   80   80     0.00000   2.84811  3.08826e-03  1070  1860   0.26   1.35 -10.46    1.22  -16.54    0.56  5.000  0.000 0 1 2 2  2.750  2.750   4.00   39.37  3033.00    0.00   1   95.00     6    0    0    17   0.0  1   1    3    0   0.000    0.000    0.000  1  0.000000  0.000000  0.000000
  1   1    3 18 0 2    70  16   100   80   80     0.00000   2.84811  3.08826e-03  1070  1860   0.26   1.35 -10.46    1.22  -16.54    0.56  5.000  0.000 0 1 3 2  2.750  2.750   4.00   78.90  3033.00    0.00   1   95.00     6    0    0    17   0.0  1   1    3    0   0.000    0.000    0.000  1  0.000000  0.000000  0.000000
  1   1    4 18 0 2    71  16   100   80   80     0.00000   2.84811  3.08826e-03  1070  1860   0.26   1.35 -10.46    1.22  -16.54    0.56  5.000  0.000 0 1 4 2  2.750  2.750   4.00  118.63  3033.00    0.00   1   95.00     6    0    0    17   0.0  1   1    3    0   0.000    0.000    0.000  1  0.000000  0.000000  0.000000
  1   1    1 19 0 2    72  16   100   80   80     0.00000   2.84811  3.08826e-03  1070  1860   0.26   1.35 -10.46    1.22  -16.54    0.56  5.000  0.000 0 1 1 2  2.750  2.750   4.00    0.00  3183.00    0.00   1   95.00     6    0    0    17   0.0  1   1    3    0   0.000    0.000    0.000  1  0.000000  0.000000  0.000000
  1   1    2 19 0 2    73  16   100   80   80     0.00000   2.84811  3.08826e-03  1070  1860   0.26   1.35 -10.46    1.22  -16.54    0.56  5.000  0.000 0 1 2 2  2.750  2.750   4.00   39.37  3183.00    0.00   1   95.00     6    0    0    17   0.0  1   1    3    0   0.000    0.000    0.000  1  0.000000  0.000000  0.000000
  1   1    3 19 0 2    74  16   100   80   80     0.00000   2.84811  3.08826e-03  1070  1860   0.26   1.35 -10.46    1.22  -16.54    0.56  5.000  0.000 0 1 3 2  2.750  2.750   4.00   78.90  3183.00    0.00   1   95.00     6    0    0    17   0.0  1   1    3    0   0.000    0.000    0.000  1  0.000000  0.000000  0.000000
